Date,Time,Open,High,Low,Close,Volume,OpenInt
2015-02-03,16:30:00,64.15,64.21,63.88,63.88,23269,0
2015-02-03,16:35:00,63.94,64.27,63.94,64.09,12991,0
2015-02-03,16:40:00,64.16,64.16,64.0,64.0,1300,0
2015-02-03,16:45:00,63.97,63.99,63.97,63.98,600,0
2015-02-03,16:50:00,63.92,64.05,63.91,63.91,1200,0
2015-02-03,16:55:00,63.91,64.05,63.89,64.05,3913,0
2015-02-03,17:00:00,64.13,64.2,64.08,64.08,2900,0
2015-02-03,17:05:00,63.91,63.91,63.87,63.88,1000,0
2015-02-03,17:10:00,63.86,63.89,63.57,63.84,3300,0
2015-02-03,17:15:00,64.03,64.03,64.0,64.0,1400,0
2015-02-03,17:20:00,63.88,64.09,63.88,64.09,2900,0
2015-02-03,17:25:00,64.12,64.14,64.02,64.09,2031,0
2015-02-03,17:30:00,64.1,64.1,63.88,63.88,1900,0
2015-02-03,17:35:00,63.81,63.91,63.74,63.74,1800,0
2015-02-03,17:40:00,63.69,63.92,63.69,63.9,3346,0
2015-02-03,17:45:00,63.9,64.11,63.9,64.03,4104,0
2015-02-03,17:50:00,63.94,63.97,63.85,63.86,1736,0
2015-02-03,17:55:00,63.85,63.95,63.81,63.81,3812,0
2015-02-03,18:00:00,63.7,63.81,63.6,63.75,8200,0
2015-02-03,18:05:00,63.7,63.73,63.68,63.7,2692,0
2015-02-03,18:10:00,63.66,63.72,63.66,63.67,2200,0
2015-02-03,18:15:00,63.67,63.73,63.67,63.72,9900,0
2015-02-03,18:20:00,63.72,63.73,63.68,63.73,1000,0
2015-02-03,18:25:00,63.68,63.69,63.55,63.55,1300,0
2015-02-03,18:30:00,63.59,63.68,63.59,63.66,6200,0
2015-02-03,18:35:00,63.63,63.63,63.54,63.54,1000,0
2015-02-03,18:40:00,63.52,63.53,63.34,63.36,1900,0
2015-02-03,18:45:00,63.47,63.72,63.45,63.66,3400,0
2015-02-03,18:50:00,63.67,63.7,63.61,63.61,1500,0
2015-02-03,18:55:00,63.61,63.61,63.55,63.57,1000,0
2015-02-03,19:00:00,63.67,63.7,63.59,63.59,3594,0
2015-02-03,19:05:00,63.59,63.68,63.5,63.63,2120,0
2015-02-03,19:10:00,63.63,63.65,63.52,63.57,3433,0
2015-02-03,19:15:00,63.58,63.66,63.55,63.59,8600,0
2015-02-03,19:20:00,63.64,63.64,63.54,63.59,4652,0
2015-02-03,19:25:00,63.58,63.7,63.57,63.64,4906,0
2015-02-03,19:30:00,63.65,63.65,63.57,63.58,3985,0
2015-02-03,19:35:00,63.6,63.61,63.53,63.57,6998,0
2015-02-03,19:40:00,63.48,63.49,63.45,63.45,1500,0
2015-02-03,19:45:00,63.45,63.58,63.45,63.54,59871,0
2015-02-03,19:50:00,63.48,63.5,63.39,63.43,6800,0
2015-02-03,19:55:00,63.47,63.47,63.36,63.41,4700,0
2015-02-03,20:00:00,63.43,63.54,63.34,63.48,4400,0
2015-02-03,20:05:00,63.54,63.61,63.49,63.49,7526,0
2015-02-03,20:10:00,63.54,63.54,63.44,63.5,5200,0
2015-02-03,20:15:00,63.51,63.56,63.47,63.53,6336,0
2015-02-03,20:20:00,63.54,63.67,63.54,63.67,7929,0
2015-02-03,20:25:00,63.63,63.64,63.53,63.53,4200,0
2015-02-03,20:30:00,63.58,63.58,63.43,63.49,5605,0
2015-02-03,20:35:00,63.49,63.54,63.49,63.51,5920,0
2015-02-03,20:40:00,63.53,63.68,63.41,63.64,6500,0
2015-02-03,20:45:00,63.57,63.63,63.43,63.5,3620,0
2015-02-03,20:50:00,63.55,63.61,63.37,63.46,2800,0
2015-02-03,20:55:00,63.46,63.55,63.31,63.43,4000,0
2015-02-03,21:00:00,63.47,63.5,63.4,63.44,5924,0
2015-02-03,21:05:00,63.48,63.59,63.48,63.49,3815,0
2015-02-03,21:10:00,63.5,63.52,63.31,63.37,9210,0
2015-02-03,21:15:00,63.4,63.46,63.34,63.34,7400,0
2015-02-03,21:20:00,63.35,63.4,63.35,63.36,4700,0
2015-02-03,21:25:00,63.35,63.41,63.35,63.4,7600,0
2015-02-03,21:30:00,63.41,63.55,63.33,63.5,8664,0
2015-02-03,21:35:00,63.49,63.52,63.46,63.46,6234,0
2015-02-03,21:40:00,63.4,63.48,63.4,63.45,9075,0
2015-02-03,21:45:00,63.47,63.47,63.37,63.41,8027,0
2015-02-03,21:50:00,63.44,63.47,63.32,63.32,16868,0
2015-02-03,21:55:00,63.38,63.43,63.33,63.41,13913,0
2015-02-03,22:00:00,63.44,63.5,63.41,63.47,72352,0
2015-02-04,15:35:00,63.81,63.81,63.18,63.33,2400,0
2015-02-04,15:40:00,63.16,63.48,63.16,63.4,7300,0
2015-02-04,15:45:00,63.59,63.63,63.34,63.34,1400,0
2015-02-04,15:50:00,63.52,63.59,63.49,63.52,2000,0
2015-02-04,15:55:00,63.5,63.71,63.5,63.53,4100,0
2015-02-04,16:00:00,63.57,63.58,63.47,63.55,3579,0
2015-02-04,16:05:00,63.5,63.67,63.48,63.48,2800,0
2015-02-04,16:10:00,63.55,63.6,63.49,63.58,1400,0
2015-02-04,16:15:00,63.51,63.58,63.45,63.56,1800,0
2015-02-04,16:20:00,63.46,63.48,63.34,63.34,14033,0
2015-02-04,16:25:00,63.33,63.54,63.26,63.42,12083,0
2015-02-04,16:30:00,63.4,63.52,63.26,63.33,3700,0
2015-02-04,16:35:00,63.37,63.5,63.29,63.49,7500,0
2015-02-04,16:40:00,63.46,63.51,63.36,63.4,1000,0
2015-02-04,16:45:00,63.4,63.49,63.4,63.4,7815,0
2015-02-04,16:50:00,63.39,63.43,63.38,63.39,2516,0
2015-02-04,16:55:00,63.41,63.41,63.36,63.41,600,0
2015-02-04,17:00:00,63.41,63.53,63.37,63.53,3200,0
2015-02-04,17:05:00,63.51,63.65,63.48,63.57,2100,0
2015-02-04,17:10:00,63.61,63.68,63.59,63.6,12400,0
2015-02-04,17:15:00,63.58,63.62,63.52,63.6,4700,0
2015-02-04,17:20:00,63.6,63.88,63.6,63.67,4007,0
2015-02-04,17:25:00,63.7,63.95,63.61,63.88,30903,0
2015-02-04,17:30:00,63.83,63.93,63.8,63.9,6304,0
2015-02-04,17:35:00,63.92,63.97,63.92,63.97,1100,0
2015-02-04,17:40:00,63.89,63.91,63.86,63.87,3582,0
2015-02-04,17:45:00,63.85,63.85,63.75,63.84,1900,0
2015-02-04,17:50:00,63.74,63.89,63.74,63.88,4600,0
2015-02-04,17:55:00,63.86,63.86,63.72,63.81,900,0
2015-02-04,18:00:00,63.68,63.8,63.68,63.74,1100,0
2015-02-04,18:05:00,63.54,63.63,63.53,63.57,1700,0
2015-02-04,18:10:00,63.57,63.6,63.46,63.55,1900,0
2015-02-04,18:15:00,63.48,63.57,63.47,63.55,2700,0
2015-02-04,18:20:00,63.57,63.59,63.47,63.47,2261,0
2015-02-04,18:25:00,63.47,63.55,63.43,63.55,1505,0
2015-02-04,18:30:00,63.43,63.44,63.29,63.29,900,0
2015-02-04,18:35:00,63.37,63.37,63.15,63.18,4300,0
2015-02-04,18:40:00,63.21,63.27,63.16,63.22,2990,0
2015-02-04,18:45:00,63.22,63.28,63.09,63.17,2483,0
2015-02-04,18:50:00,63.08,63.2,63.07,63.13,1500,0
2015-02-04,18:55:00,63.18,63.37,63.18,63.23,3500,0
2015-02-04,19:00:00,63.24,63.24,63.1,63.1,1300,0
2015-02-04,19:05:00,63.21,63.21,63.1,63.13,900,0
2015-02-04,19:10:00,63.13,63.22,63.13,63.13,1200,0
2015-02-04,19:15:00,63.2,63.36,63.13,63.25,13900,0
2015-02-04,19:20:00,63.27,63.27,63.16,63.22,1100,0
2015-02-04,19:25:00,63.21,63.22,63.07,63.07,4912,0
2015-02-04,19:30:00,63.12,63.21,63.11,63.2,3771,0
2015-02-04,19:35:00,63.3,63.3,63.26,63.28,1600,0
2015-02-04,19:40:00,63.28,63.31,63.24,63.27,4245,0
2015-02-04,19:45:00,63.25,63.38,63.25,63.29,2200,0
2015-02-04,19:50:00,63.3,63.33,63.29,63.33,1700,0
2015-02-04,19:55:00,63.28,63.3,63.17,63.24,3400,0
2015-02-04,20:00:00,63.26,63.3,63.24,63.3,2142,0
2015-02-04,20:05:00,63.3,63.32,63.25,63.32,2400,0
2015-02-04,20:10:00,63.3,63.32,63.26,63.28,2000,0
2015-02-04,20:15:00,63.25,63.29,63.21,63.22,3600,0
2015-02-04,20:20:00,63.25,63.25,63.18,63.19,1200,0
2015-02-04,20:25:00,63.19,63.23,63.14,63.16,4332,0
2015-02-04,20:30:00,63.23,63.26,63.2,63.2,4636,0
2015-02-04,20:35:00,63.22,63.25,63.15,63.16,4733,0
2015-02-04,20:40:00,63.19,63.39,63.19,63.26,4300,0
2015-02-04,20:45:00,63.4,63.4,63.3,63.3,2900,0
2015-02-04,20:50:00,63.34,63.37,63.29,63.29,2610,0
2015-02-04,20:55:00,63.29,63.35,63.29,63.35,3836,0
2015-02-04,21:00:00,63.36,63.39,63.31,63.31,2200,0
2015-02-04,21:05:00,63.35,63.35,63.3,63.33,4200,0
2015-02-04,21:10:00,63.32,63.35,63.28,63.32,4400,0
2015-02-04,21:15:00,63.38,63.42,63.23,63.25,8399,0
2015-02-04,21:20:00,63.27,63.3,63.24,63.26,17382,0
2015-02-04,21:25:00,63.3,63.3,63.3,63.3,5769,0
2015-02-04,21:30:00,63.3,63.3,63.24,63.26,8675,0
2015-02-04,21:35:00,63.26,63.26,63.24,63.26,20760,0
2015-02-04,21:40:00,63.25,63.4,63.25,63.28,10760,0
2015-02-04,21:45:00,63.25,63.25,62.95,63.14,15637,0
2015-02-04,21:50:00,63.16,63.27,63.08,63.25,14830,0
2015-02-04,21:55:00,63.26,63.26,63.1,63.25,19126,0
2015-02-04,22:00:00,63.25,63.27,63.19,63.22,91043,0
2015-02-05,15:35:00,63.74,63.91,63.74,63.91,2976,0
2015-02-05,15:40:00,63.86,63.89,63.45,63.48,2500,0
2015-02-05,15:45:00,63.47,63.71,63.41,63.43,3000,0
2015-02-05,15:50:00,63.44,63.71,63.4,63.4,3600,0
2015-02-05,15:55:00,63.53,63.67,63.4,63.51,5720,0
2015-02-05,16:00:00,63.5,63.67,63.41,63.41,3200,0
2015-02-05,16:05:00,63.42,63.71,63.42,63.6,6800,0
2015-02-05,16:10:00,63.55,64.0,63.55,63.81,6930,0
2015-02-05,16:15:00,63.78,63.81,63.75,63.75,2078,0
2015-02-05,16:20:00,63.73,63.82,63.73,63.73,3100,0
2015-02-05,16:25:00,63.68,63.81,63.68,63.76,18129,0
2015-02-05,16:30:00,63.75,63.85,63.73,63.74,2800,0
2015-02-05,16:35:00,63.82,63.86,63.68,63.74,8781,0
2015-02-05,16:40:00,63.77,64.02,63.75,63.85,10564,0
2015-02-05,16:45:00,63.87,64.34,63.87,64.34,5300,0
2015-02-05,16:50:00,64.1,64.2,64.07,64.07,2550,0
2015-02-05,16:55:00,64.08,64.08,64.02,64.07,2400,0
2015-02-05,17:00:00,64.02,64.1,64.01,64.1,4074,0
2015-02-05,17:05:00,64.13,64.13,64.13,64.13,100,0
2015-02-05,17:10:00,64.1,64.12,64.02,64.05,3572,0
2015-02-05,17:15:00,64.13,64.13,64.1,64.1,600,0
2015-02-05,17:20:00,64.07,64.08,64.02,64.02,1800,0
2015-02-05,17:25:00,64.11,64.11,63.98,63.98,3500,0
2015-02-05,17:30:00,64.05,64.2,63.99,64.2,3125,0
2015-02-05,17:35:00,64.24,64.24,64.17,64.18,800,0
2015-02-05,17:40:00,64.18,64.3,64.18,64.21,3400,0
2015-02-05,17:45:00,64.24,64.25,64.24,64.25,1000,0
2015-02-05,17:50:00,64.21,64.3,64.19,64.25,3200,0
2015-02-05,17:55:00,64.28,64.28,64.18,64.25,3200,0
2015-02-05,18:00:00,64.25,64.32,64.23,64.3,3300,0
2015-02-05,18:05:00,64.3,64.32,64.21,64.25,5435,0
2015-02-05,18:10:00,64.22,64.25,64.21,64.24,1600,0
2015-02-05,18:15:00,64.28,64.28,64.22,64.26,1300,0
2015-02-05,18:20:00,64.25,64.25,64.15,64.15,2500,0
2015-02-05,18:25:00,64.07,64.08,63.83,64.03,6515,0
2015-02-05,18:30:00,64.02,64.02,64.01,64.02,700,0
2015-02-05,18:35:00,64.03,64.12,64.01,64.12,4204,0
2015-02-05,18:40:00,64.07,64.12,64.05,64.05,1773,0
2015-02-05,18:45:00,64.05,64.11,64.01,64.01,3700,0
2015-02-05,18:50:00,63.99,64.08,63.97,63.97,1100,0
2015-02-05,18:55:00,64.04,64.06,63.95,63.95,2500,0
2015-02-05,19:00:00,63.95,63.98,63.94,63.98,2000,0
2015-02-05,19:05:00,63.95,64.02,63.92,64.0,2934,0
2015-02-05,19:10:00,63.96,64.04,63.95,64.04,1119,0
2015-02-05,19:15:00,63.95,64.11,63.95,64.07,3600,0
2015-02-05,19:20:00,64.01,64.16,64.01,64.08,5420,0
2015-02-05,19:25:00,64.1,64.19,64.1,64.15,4000,0
2015-02-05,19:30:00,64.06,64.2,64.06,64.15,4400,0
2015-02-05,19:35:00,64.12,64.2,64.12,64.2,18500,0
2015-02-05,19:40:00,64.05,64.15,64.04,64.15,511,0
2015-02-05,19:45:00,64.15,64.15,64.06,64.06,900,0
2015-02-05,19:50:00,64.13,64.17,64.07,64.1,4441,0
2015-02-05,19:55:00,64.05,64.12,64.05,64.12,600,0
2015-02-05,20:00:00,64.13,64.23,64.1,64.15,2280,0
2015-02-05,20:05:00,64.15,64.16,64.11,64.14,1700,0
2015-02-05,20:10:00,64.14,64.22,64.14,64.22,900,0
2015-02-05,20:15:00,64.17,64.27,64.17,64.26,3600,0
2015-02-05,20:20:00,64.3,64.3,64.17,64.2,1200,0
2015-02-05,20:25:00,64.17,64.22,64.09,64.2,4400,0
2015-02-05,20:30:00,64.17,64.17,64.03,64.08,2919,0
2015-02-05,20:35:00,64.07,64.1,64.02,64.02,1700,0
2015-02-05,20:40:00,64.04,64.04,64.04,64.04,400,0
2015-02-05,20:45:00,64.08,64.08,63.87,63.87,5700,0
2015-02-05,20:50:00,63.89,63.9,63.85,63.85,1200,0
2015-02-05,20:55:00,63.85,63.89,63.85,63.87,1700,0
2015-02-05,21:00:00,63.87,63.93,63.81,63.85,4600,0
2015-02-05,21:05:00,63.85,63.86,63.81,63.81,4400,0
2015-02-05,21:10:00,63.79,63.91,63.79,63.89,23409,0
2015-02-05,21:15:00,63.88,63.99,63.87,63.96,7700,0
2015-02-05,21:20:00,63.94,64.01,63.94,63.98,17130,0
2015-02-05,21:25:00,64.0,64.26,63.99,64.26,6200,0
2015-02-05,21:30:00,64.23,64.26,64.06,64.24,33219,0
2015-02-05,21:35:00,64.24,64.24,64.08,64.08,7803,0
2015-02-05,21:40:00,64.05,64.13,64.05,64.11,2000,0
2015-02-05,21:45:00,64.11,64.13,64.09,64.1,13047,0
2015-02-05,21:50:00,64.11,64.12,63.96,63.97,14795,0
2015-02-05,21:55:00,64.0,64.08,63.93,63.96,28458,0
2015-02-05,22:00:00,63.98,64.05,63.69,63.81,101970,0
2015-02-06,15:35:00,64.12,64.12,63.76,63.9,4347,0
2015-02-06,15:40:00,63.88,64.14,63.79,64.13,21463,0
2015-02-06,15:45:00,64.12,65.5,64.0,65.5,22495,0
2015-02-06,15:50:00,65.56,65.96,65.39,65.9,16301,0
2015-02-06,15:55:00,65.9,66.6,65.67,66.54,23750,0
2015-02-06,16:00:00,66.46,66.46,65.75,66.09,25234,0
2015-02-06,16:05:00,66.19,66.19,65.51,65.71,16260,0
2015-02-06,16:10:00,65.81,66.04,65.37,65.37,15517,0
2015-02-06,16:15:00,65.38,65.51,65.26,65.3,9212,0
2015-02-06,16:20:00,65.26,65.31,65.02,65.23,7958,0
2015-02-06,16:25:00,65.23,65.29,65.15,65.2,16113,0
2015-02-06,16:30:00,65.21,65.49,65.19,65.34,12100,0
2015-02-06,16:35:00,65.3,65.49,65.18,65.49,22110,0
2015-02-06,16:40:00,65.46,66.1,65.46,65.75,42509,0
2015-02-06,16:45:00,65.72,65.92,65.32,65.53,38210,0
2015-02-06,16:50:00,65.49,65.67,65.48,65.49,10400,0
2015-02-06,16:55:00,65.49,65.57,65.2,65.2,9000,0
2015-02-06,17:00:00,65.19,65.25,65.13,65.17,2619,0
2015-02-06,17:05:00,65.2,65.25,64.91,64.92,20953,0
2015-02-06,17:10:00,64.93,65.42,64.93,65.3,22929,0
2015-02-06,17:15:00,65.36,65.43,65.23,65.28,10707,0
2015-02-06,17:20:00,65.28,65.41,65.26,65.33,8207,0
2015-02-06,17:25:00,65.28,65.33,65.26,65.3,12100,0
2015-02-06,17:30:00,65.3,65.37,65.26,65.27,3200,0
2015-02-06,17:35:00,65.32,65.42,65.27,65.39,9100,0
2015-02-06,17:40:00,65.39,65.4,65.25,65.3,11359,0
2015-02-06,17:45:00,65.26,65.32,65.17,65.18,3200,0
2015-02-06,17:50:00,65.18,65.3,64.92,65.06,14692,0
2015-02-06,17:55:00,65.06,65.17,65.05,65.08,1800,0
2015-02-06,18:00:00,65.09,65.18,64.97,64.99,9800,0
2015-02-06,18:05:00,64.97,65.07,64.76,64.78,7300,0
2015-02-06,18:10:00,64.79,64.86,64.77,64.85,10507,0
2015-02-06,18:15:00,64.78,64.86,64.73,64.86,5246,0
2015-02-06,18:20:00,64.85,64.85,64.73,64.78,7300,0
2015-02-06,18:25:00,64.84,64.86,64.73,64.74,4500,0
2015-02-06,18:30:00,64.75,64.79,64.73,64.79,3700,0
2015-02-06,18:35:00,64.75,64.79,64.67,64.69,5900,0
2015-02-06,18:40:00,64.67,64.77,64.67,64.67,4100,0
2015-02-06,18:45:00,64.7,64.72,64.5,64.5,8300,0
2015-02-06,18:50:00,64.5,64.54,64.43,64.45,6600,0
2015-02-06,18:55:00,64.44,64.54,64.44,64.47,6900,0
2015-02-06,19:00:00,64.47,64.53,64.29,64.29,3500,0
2015-02-06,19:05:00,64.43,64.53,64.38,64.53,4600,0
2015-02-06,19:10:00,64.48,64.53,64.23,64.24,6216,0
2015-02-06,19:15:00,64.23,64.3,64.19,64.19,4700,0
2015-02-06,19:20:00,64.19,64.26,64.0,64.11,16600,0
2015-02-06,19:25:00,64.11,64.28,64.11,64.15,3000,0
2015-02-06,19:30:00,64.15,64.59,64.15,64.56,11504,0
2015-02-06,19:35:00,64.57,64.64,64.41,64.5,10500,0
2015-02-06,19:40:00,64.42,64.56,64.42,64.49,9700,0
2015-02-06,19:45:00,64.53,64.54,64.41,64.45,4340,0
2015-02-06,19:50:00,64.47,64.48,64.38,64.4,3500,0
2015-02-06,19:55:00,64.41,64.54,64.41,64.45,5500,0
2015-02-06,20:00:00,64.44,64.51,64.39,64.5,7640,0
2015-02-06,20:05:00,64.53,64.56,64.46,64.51,4000,0
2015-02-06,20:10:00,64.53,64.6,64.45,64.45,9000,0
2015-02-06,20:15:00,64.44,64.51,64.36,64.36,1900,0
2015-02-06,20:20:00,64.36,64.36,64.22,64.23,1500,0
2015-02-06,20:25:00,64.24,64.55,64.24,64.41,6824,0
2015-02-06,20:30:00,64.41,64.42,64.26,64.33,2400,0
2015-02-06,20:35:00,64.27,64.41,64.26,64.41,8400,0
2015-02-06,20:40:00,64.42,64.51,64.42,64.46,2100,0
2015-02-06,20:45:00,64.46,64.51,64.43,64.45,5400,0
2015-02-06,20:50:00,64.45,64.45,64.25,64.32,5160,0
2015-02-06,20:55:00,64.39,64.47,64.36,64.36,2200,0
2015-02-06,21:00:00,64.36,64.44,64.24,64.24,4800,0
2015-02-06,21:05:00,64.31,64.31,64.14,64.17,6650,0
2015-02-06,21:10:00,64.26,64.27,64.14,64.16,17172,0
2015-02-06,21:15:00,64.19,64.23,64.17,64.18,11600,0
2015-02-06,21:20:00,64.15,64.46,64.15,64.43,6728,0
2015-02-06,21:25:00,64.37,64.41,64.29,64.36,9016,0
2015-02-06,21:30:00,64.35,64.43,64.33,64.34,12792,0
2015-02-06,21:35:00,64.41,64.54,64.27,64.5,27110,0
2015-02-06,21:40:00,64.5,64.54,64.39,64.4,8520,0
2015-02-06,21:45:00,64.45,64.45,64.25,64.29,22038,0
2015-02-06,21:50:00,64.26,64.26,64.03,64.16,22088,0
2015-02-06,21:55:00,64.17,64.41,64.17,64.33,26716,0
2015-02-06,22:00:00,64.34,64.43,64.16,64.33,155057,0
2015-02-09,15:35:00,64.35,64.35,64.07,64.21,1700,0
2015-02-09,15:40:00,64.11,64.43,64.11,64.23,11958,0
2015-02-09,15:45:00,64.19,64.2,63.85,63.88,8766,0
2015-02-09,15:50:00,63.93,63.93,63.51,63.64,5700,0
2015-02-09,15:55:00,63.64,63.88,63.64,63.77,6377,0
2015-02-09,16:00:00,63.76,63.79,63.68,63.73,23237,0
2015-02-09,16:05:00,63.76,63.76,63.69,63.71,5200,0
2015-02-09,16:10:00,63.7,63.81,63.67,63.75,5200,0
2015-02-09,16:15:00,63.68,63.8,63.68,63.79,8570,0
2015-02-09,16:20:00,63.74,64.05,63.74,63.89,9800,0
2015-02-09,16:25:00,63.9,63.9,63.54,63.54,5766,0
2015-02-09,16:30:00,63.63,63.72,63.55,63.62,13745,0
2015-02-09,16:35:00,63.62,63.73,63.56,63.73,28344,0
2015-02-09,16:40:00,63.72,63.83,63.57,63.63,19344,0
2015-02-09,16:45:00,63.64,63.8,63.62,63.68,19716,0
2015-02-09,16:50:00,63.67,63.99,63.66,63.94,20913,0
2015-02-09,16:55:00,64.0,64.05,63.91,64.01,12100,0
2015-02-09,17:00:00,63.98,64.01,63.88,64.01,5600,0
2015-02-09,17:05:00,63.98,64.05,63.9,64.01,4200,0
2015-02-09,17:10:00,64.0,64.03,63.87,63.96,8440,0
2015-02-09,17:15:00,63.99,63.99,63.85,63.9,4993,0
2015-02-09,17:20:00,63.91,63.99,63.9,63.9,7100,0
2015-02-09,17:25:00,63.93,64.03,63.93,64.03,26300,0
2015-02-09,17:30:00,64.05,64.23,64.0,64.22,23306,0
2015-02-09,17:35:00,64.19,64.25,64.12,64.13,22845,0
2015-02-09,17:40:00,64.15,64.19,63.98,63.98,21958,0
2015-02-09,17:45:00,63.94,64.19,63.92,64.14,12665,0
2015-02-09,17:50:00,64.07,64.18,64.05,64.06,3800,0
2015-02-09,17:55:00,64.04,64.12,64.02,64.1,6859,0
2015-02-09,18:00:00,64.1,64.1,63.99,64.08,700,0
2015-02-09,18:05:00,64.08,64.12,63.99,64.0,8488,0
2015-02-09,18:10:00,64.02,64.12,63.97,64.12,3296,0
2015-02-09,18:15:00,64.07,64.18,64.04,64.17,5400,0
2015-02-09,18:20:00,64.11,64.12,63.96,63.96,1600,0
2015-02-09,18:25:00,63.98,64.03,63.94,64.0,5582,0
2015-02-09,18:30:00,63.97,64.01,63.95,64.0,2800,0
2015-02-09,18:35:00,64.0,64.04,63.89,63.9,12848,0
2015-02-09,18:40:00,63.92,63.98,63.92,63.98,3500,0
2015-02-09,18:45:00,63.98,63.98,63.87,63.91,2600,0
2015-02-09,18:50:00,63.86,63.9,63.81,63.84,2900,0
2015-02-09,18:55:00,63.87,63.88,63.85,63.87,1400,0
2015-02-09,19:00:00,63.88,63.88,63.81,63.87,2500,0
2015-02-09,19:05:00,63.87,63.88,63.73,63.82,3000,0
2015-02-09,19:10:00,63.74,63.82,63.7,63.8,3875,0
2015-02-09,19:15:00,63.82,63.83,63.8,63.82,2602,0
2015-02-09,19:20:00,63.79,63.83,63.79,63.8,1500,0
2015-02-09,19:25:00,63.79,63.83,63.79,63.81,2400,0
2015-02-09,19:30:00,63.79,63.84,63.77,63.77,4500,0
2015-02-09,19:35:00,63.79,63.79,63.71,63.75,4312,0
2015-02-09,19:40:00,63.75,63.79,63.75,63.75,4000,0
2015-02-09,19:45:00,63.71,63.79,63.68,63.73,3800,0
2015-02-09,19:50:00,63.66,63.71,63.6,63.71,2900,0
2015-02-09,19:55:00,63.69,63.75,63.65,63.75,2700,0
2015-02-09,20:00:00,63.75,63.8,63.71,63.76,2800,0
2015-02-09,20:05:00,63.75,63.77,63.74,63.77,4291,0
2015-02-09,20:10:00,63.71,63.76,63.69,63.72,3288,0
2015-02-09,20:15:00,63.73,63.76,63.72,63.75,3000,0
2015-02-09,20:20:00,63.74,63.74,63.69,63.72,3300,0
2015-02-09,20:25:00,63.71,63.72,63.65,63.65,4600,0
2015-02-09,20:30:00,63.69,63.73,63.61,63.69,4120,0
2015-02-09,20:35:00,63.7,63.71,63.64,63.68,5500,0
2015-02-09,20:40:00,63.67,63.68,63.64,63.65,3100,0
2015-02-09,20:45:00,63.68,63.71,63.61,63.71,3500,0
2015-02-09,20:50:00,63.64,63.66,63.6,63.61,4472,0
2015-02-09,20:55:00,63.62,63.66,63.62,63.65,5000,0
2015-02-09,21:00:00,63.65,63.66,63.57,63.63,4300,0
2015-02-09,21:05:00,63.62,63.63,63.25,63.26,14201,0
2015-02-09,21:10:00,63.31,63.39,63.18,63.3,17800,0
2015-02-09,21:15:00,63.38,63.49,63.31,63.41,12289,0
2015-02-09,21:20:00,63.45,63.5,63.4,63.5,7000,0
2015-02-09,21:25:00,63.5,63.71,63.46,63.71,4267,0
2015-02-09,21:30:00,63.7,63.81,63.7,63.81,10300,0
2015-02-09,21:35:00,63.78,63.8,63.71,63.73,8210,0
2015-02-09,21:40:00,63.72,63.76,63.62,63.68,8800,0
2015-02-09,21:45:00,63.66,63.77,63.64,63.72,12700,0
2015-02-09,21:50:00,63.79,63.79,63.6,63.6,19703,0
2015-02-09,21:55:00,63.68,63.73,63.56,63.58,19760,0
2015-02-09,22:00:00,63.61,63.74,63.57,63.65,67104,0
2015-02-10,15:35:00,64.31,64.31,64.04,64.04,400,0
2015-02-10,15:40:00,64.05,64.06,64.0,64.04,1200,0
2015-02-10,15:45:00,64.03,64.17,64.0,64.02,5881,0
2015-02-10,15:50:00,64.02,64.08,63.99,64.0,10100,0
2015-02-10,15:55:00,64.01,64.07,63.99,63.99,5140,0
2015-02-10,16:00:00,63.98,64.07,63.98,64.02,6421,0
2015-02-10,16:05:00,64.06,64.06,63.95,63.95,6183,0
2015-02-10,16:10:00,63.93,64.07,63.93,64.01,5100,0
2015-02-10,16:15:00,64.0,64.03,63.99,64.02,3600,0
2015-02-10,16:20:00,64.01,64.05,63.94,63.95,7400,0
2015-02-10,16:25:00,63.91,63.91,63.87,63.87,700,0
2015-02-10,16:30:00,63.89,63.9,63.82,63.84,2300,0
2015-02-10,16:35:00,63.87,63.87,63.8,63.84,1400,0
2015-02-10,16:40:00,63.85,63.9,63.85,63.9,1400,0
2015-02-10,16:45:00,63.98,63.98,63.98,63.98,500,0
2015-02-10,16:50:00,63.99,63.99,63.9,63.94,2930,0
2015-02-10,16:55:00,63.92,63.96,63.92,63.96,1100,0
2015-02-10,17:00:00,63.98,63.98,63.93,63.94,5300,0
2015-02-10,17:05:00,63.98,63.98,63.88,63.88,7304,0
2015-02-10,17:10:00,63.87,63.92,63.76,63.86,3600,0
2015-02-10,17:15:00,63.86,63.94,63.85,63.93,6132,0
2015-02-10,17:20:00,63.92,63.97,63.89,63.97,1700,0
2015-02-10,17:25:00,63.97,64.01,63.96,63.98,4200,0
2015-02-10,17:30:00,63.96,64.01,63.91,63.91,12100,0
2015-02-10,17:35:00,63.93,63.97,63.85,63.95,10336,0
2015-02-10,17:40:00,63.9,63.92,63.77,63.85,13700,0
2015-02-10,17:45:00,63.85,63.97,63.85,63.9,15113,0
2015-02-10,17:50:00,63.91,63.92,63.84,63.85,10200,0
2015-02-10,17:55:00,63.85,63.93,63.85,63.91,2460,0
2015-02-10,18:00:00,63.9,63.9,63.82,63.84,6189,0
2015-02-10,18:05:00,63.91,63.91,63.84,63.85,6222,0
2015-02-10,18:10:00,63.87,63.89,63.84,63.88,11290,0
2015-02-10,18:15:00,63.89,63.95,63.85,63.87,10400,0
2015-02-10,18:20:00,63.88,63.91,63.87,63.9,3450,0
2015-02-10,18:25:00,63.9,63.9,63.74,63.85,8900,0
2015-02-10,18:30:00,63.81,63.82,63.77,63.77,2700,0
2015-02-10,18:35:00,63.79,63.79,63.74,63.79,3200,0
2015-02-10,18:40:00,63.79,63.82,63.77,63.8,1900,0
2015-02-10,18:45:00,63.85,63.85,63.79,63.79,1800,0
2015-02-10,18:50:00,63.79,63.83,63.79,63.81,1400,0
2015-02-10,18:55:00,63.83,63.83,63.8,63.8,6305,0
2015-02-10,19:00:00,63.82,63.83,63.82,63.82,1400,0
2015-02-10,19:05:00,63.83,63.9,63.83,63.89,4696,0
2015-02-10,19:10:00,63.89,63.89,63.78,63.8,2400,0
2015-02-10,19:15:00,63.79,63.87,63.79,63.82,10200,0
2015-02-10,19:20:00,63.9,63.9,63.82,63.82,4700,0
2015-02-10,19:25:00,63.83,63.84,63.69,63.78,10100,0
2015-02-10,19:30:00,63.79,63.8,63.69,63.76,11647,0
2015-02-10,19:35:00,63.73,63.83,63.72,63.74,5812,0
2015-02-10,19:40:00,63.74,63.75,63.56,63.59,13600,0
2015-02-10,19:45:00,63.61,63.73,63.53,63.54,11000,0
2015-02-10,19:50:00,63.58,63.6,63.47,63.56,14680,0
2015-02-10,19:55:00,63.58,63.59,63.49,63.5,9712,0
2015-02-10,20:00:00,63.49,63.53,63.41,63.44,16173,0
2015-02-10,20:05:00,63.47,63.58,63.41,63.52,13800,0
2015-02-10,20:10:00,63.57,63.7,63.54,63.7,6600,0
2015-02-10,20:15:00,63.7,63.7,63.64,63.64,7876,0
2015-02-10,20:20:00,63.62,63.7,63.55,63.69,12697,0
2015-02-10,20:25:00,63.64,63.68,63.51,63.63,11600,0
2015-02-10,20:30:00,63.65,63.7,63.55,63.69,8200,0
2015-02-10,20:35:00,63.69,63.7,63.69,63.7,5930,0
2015-02-10,20:40:00,63.69,63.7,63.68,63.69,5800,0
2015-02-10,20:45:00,63.7,63.77,63.69,63.76,4000,0
2015-02-10,20:50:00,63.72,63.79,63.72,63.79,2600,0
2015-02-10,20:55:00,63.86,63.87,63.8,63.8,1450,0
2015-02-10,21:00:00,63.84,63.88,63.67,63.77,27591,0
2015-02-10,21:05:00,63.77,63.85,63.75,63.79,5950,0
2015-02-10,21:10:00,63.8,63.81,63.74,63.81,10582,0
2015-02-10,21:15:00,63.81,63.81,63.79,63.81,5600,0
2015-02-10,21:20:00,63.8,63.81,63.78,63.8,3974,0
2015-02-10,21:25:00,63.81,63.81,63.77,63.77,5500,0
2015-02-10,21:30:00,63.81,63.83,63.77,63.83,9154,0
2015-02-10,21:35:00,63.84,63.87,63.84,63.85,6220,0
2015-02-10,21:40:00,63.85,63.89,63.85,63.89,9187,0
2015-02-10,21:45:00,63.98,64.01,63.95,63.98,4440,0
2015-02-10,21:50:00,63.95,63.97,63.91,63.93,12487,0
2015-02-10,21:55:00,63.92,63.93,63.69,63.7,45057,0
2015-02-10,22:00:00,63.7,63.8,63.68,63.73,71721,0
2015-02-11,15:35:00,63.5,64.04,63.5,64.04,3844,0
2015-02-11,15:40:00,63.94,64.05,63.81,63.92,1900,0
2015-02-11,15:45:00,63.92,64.03,63.73,63.73,4700,0
2015-02-11,15:50:00,63.78,63.78,63.46,63.46,1900,0
2015-02-11,15:55:00,63.55,63.65,63.51,63.51,2007,0
2015-02-11,16:00:00,63.46,63.64,63.46,63.6,1100,0
2015-02-11,16:05:00,63.58,63.64,63.54,63.55,1100,0
2015-02-11,16:10:00,63.63,63.63,63.63,63.63,300,0
2015-02-11,16:15:00,63.51,63.72,63.51,63.67,2200,0
2015-02-11,16:20:00,63.65,63.65,63.46,63.6,5648,0
2015-02-11,16:25:00,63.45,63.53,63.42,63.51,7714,0
2015-02-11,16:30:00,63.53,63.53,63.5,63.53,700,0
2015-02-11,16:35:00,63.45,63.51,63.41,63.51,2880,0
2015-02-11,16:40:00,63.52,63.63,63.5,63.56,1838,0
2015-02-11,16:45:00,63.56,63.68,63.52,63.52,4172,0
2015-02-11,16:50:00,63.53,63.53,63.46,63.51,2000,0
2015-02-11,16:55:00,63.59,63.68,63.57,63.68,800,0
2015-02-11,17:00:00,63.66,63.66,63.6,63.6,800,0
2015-02-11,17:05:00,63.64,63.76,63.6,63.76,1900,0
2015-02-11,17:10:00,63.74,63.78,63.7,63.7,2400,0
2015-02-11,17:15:00,63.71,63.75,63.46,63.46,14960,0
2015-02-11,17:20:00,63.46,63.55,63.46,63.46,1900,0
2015-02-11,17:25:00,63.46,63.56,63.45,63.49,5000,0
2015-02-11,17:30:00,63.48,63.6,63.43,63.43,2800,0
2015-02-11,17:35:00,63.43,63.47,63.41,63.41,2700,0
2015-02-11,17:40:00,63.41,63.51,63.38,63.38,3800,0
2015-02-11,17:45:00,63.47,63.56,63.45,63.47,4300,0
2015-02-11,17:50:00,63.55,63.65,63.55,63.57,2600,0
2015-02-11,17:55:00,63.59,63.59,63.45,63.47,4500,0
2015-02-11,18:00:00,63.63,63.63,63.51,63.62,800,0
2015-02-11,18:05:00,63.55,63.63,63.5,63.6,2628,0
2015-02-11,18:10:00,63.67,63.67,63.38,63.61,4900,0
2015-02-11,18:15:00,63.57,63.6,63.57,63.6,1000,0
2015-02-11,18:20:00,63.59,63.59,63.56,63.58,1400,0
2015-02-11,18:25:00,63.56,63.62,63.48,63.62,9500,0
2015-02-11,18:30:00,63.53,63.62,63.51,63.62,7000,0
2015-02-11,18:35:00,63.62,63.65,63.54,63.61,4180,0
2015-02-11,18:40:00,63.63,63.65,63.55,63.59,6100,0
2015-02-11,18:45:00,63.54,63.55,63.49,63.5,1900,0
2015-02-11,18:50:00,63.56,63.56,63.56,63.56,200,0
2015-02-11,18:55:00,63.55,63.64,63.55,63.64,800,0
2015-02-11,19:00:00,63.57,63.64,63.57,63.6,1700,0
2015-02-11,19:05:00,63.61,63.62,63.58,63.6,1925,0
2015-02-11,19:10:00,63.58,63.6,63.56,63.6,2695,0
2015-02-11,19:15:00,63.53,63.54,63.48,63.52,900,0
2015-02-11,19:20:00,63.5,63.5,63.48,63.49,1800,0
2015-02-11,19:25:00,63.4,63.49,63.4,63.49,1800,0
2015-02-11,19:30:00,63.51,63.6,63.5,63.6,1500,0
2015-02-11,19:35:00,63.54,63.61,63.52,63.61,1800,0
2015-02-11,19:40:00,63.62,63.62,63.59,63.59,1000,0
2015-02-11,19:45:00,63.57,63.61,63.56,63.57,1900,0
2015-02-11,19:50:00,63.57,63.57,63.45,63.55,7040,0
2015-02-11,19:55:00,63.55,63.63,63.44,63.5,7435,0
2015-02-11,20:00:00,63.49,63.61,63.49,63.6,10730,0
2015-02-11,20:05:00,63.56,63.61,63.5,63.57,6300,0
2015-02-11,20:10:00,63.56,63.59,63.5,63.5,5500,0
2015-02-11,20:15:00,63.53,63.59,63.53,63.59,1100,0
2015-02-11,20:20:00,63.57,63.75,63.55,63.61,14499,0
2015-02-11,20:25:00,63.66,63.89,63.66,63.89,11952,0
2015-02-11,20:30:00,63.75,63.87,63.75,63.86,3100,0
2015-02-11,20:35:00,63.85,63.85,63.76,63.84,3900,0
2015-02-11,20:40:00,63.83,63.86,63.66,63.85,17900,0
2015-02-11,20:45:00,63.83,63.86,63.58,63.64,31498,0
2015-02-11,20:50:00,63.67,63.82,63.58,63.77,19902,0
2015-02-11,20:55:00,63.79,63.87,63.75,63.87,4024,0
2015-02-11,21:00:00,63.83,63.87,63.79,63.81,10415,0
2015-02-11,21:05:00,63.84,63.85,63.7,63.8,8961,0
2015-02-11,21:10:00,63.75,63.77,63.7,63.71,5196,0
2015-02-11,21:15:00,63.71,63.71,63.59,63.61,9393,0
2015-02-11,21:20:00,63.64,63.69,63.59,63.63,9110,0
2015-02-11,21:25:00,63.6,63.61,63.49,63.52,17603,0
2015-02-11,21:30:00,63.53,63.67,63.5,63.54,22976,0
2015-02-11,21:35:00,63.55,63.55,63.46,63.51,9812,0
2015-02-11,21:40:00,63.53,63.64,63.5,63.53,5800,0
2015-02-11,21:45:00,63.55,63.57,63.48,63.51,15600,0
2015-02-11,21:50:00,63.52,63.6,63.5,63.52,16345,0
2015-02-11,21:55:00,63.53,63.6,63.44,63.5,15487,0
2015-02-11,22:00:00,63.52,63.69,63.51,63.68,72232,0
2015-02-12,15:35:00,63.95,64.26,63.85,63.85,2409,0
2015-02-12,15:40:00,64.19,64.19,63.67,63.77,3232,0
2015-02-12,15:45:00,64.0,64.08,63.67,63.67,11170,0
2015-02-12,15:50:00,63.75,64.01,63.69,63.86,18903,0
2015-02-12,15:55:00,63.82,63.97,63.68,63.97,16663,0
2015-02-12,16:00:00,64.0,64.16,63.88,64.16,1900,0
2015-02-12,16:05:00,64.07,64.08,63.96,63.96,1725,0
2015-02-12,16:10:00,63.89,64.03,63.89,63.96,1700,0
2015-02-12,16:15:00,64.02,64.09,63.99,64.09,2700,0
2015-02-12,16:20:00,64.09,64.17,64.07,64.16,6837,0
2015-02-12,16:30:00,64.11,64.11,64.0,64.04,1500,0
2015-02-12,16:35:00,64.04,64.1,64.0,64.04,3400,0
2015-02-12,16:40:00,64.03,64.07,63.86,63.92,9600,0
2015-02-12,16:45:00,63.95,64.05,63.94,63.96,4191,0
2015-02-12,16:50:00,63.95,63.95,63.85,63.86,5700,0
2015-02-12,16:55:00,63.85,63.85,63.83,63.83,900,0
2015-02-12,17:00:00,63.84,63.84,63.72,63.73,3200,0
2015-02-12,17:05:00,63.71,63.81,63.71,63.78,9400,0
2015-02-12,17:10:00,63.8,63.9,63.75,63.9,17395,0
2015-02-12,17:15:00,63.88,63.98,63.88,63.89,1500,0
2015-02-12,17:20:00,63.9,63.92,63.75,63.76,10900,0
2015-02-12,17:25:00,63.77,63.77,63.73,63.77,6840,0
2015-02-12,17:30:00,63.78,63.8,63.75,63.78,11772,0
2015-02-12,17:35:00,63.8,63.97,63.75,63.91,17700,0
2015-02-12,17:40:00,63.91,64.27,63.89,64.18,13416,0
2015-02-12,17:45:00,64.14,64.28,64.14,64.28,2970,0
2015-02-12,17:50:00,64.28,64.44,64.28,64.43,4273,0
2015-02-12,17:55:00,64.42,64.42,64.32,64.38,6039,0
2015-02-12,18:00:00,64.41,64.41,64.23,64.23,5493,0
2015-02-12,18:05:00,64.23,64.27,64.01,64.11,11837,0
2015-02-12,18:10:00,64.1,64.12,63.99,64.08,15415,0
2015-02-12,18:15:00,64.06,64.09,64.01,64.09,7700,0
2015-02-12,18:20:00,64.09,64.09,64.04,64.08,2625,0
2015-02-12,18:25:00,64.04,64.26,64.02,64.26,7345,0
2015-02-12,18:30:00,64.21,64.43,64.17,64.39,22352,0
2015-02-12,18:35:00,64.4,64.55,64.22,64.29,35293,0
2015-02-12,18:40:00,64.27,64.29,64.15,64.2,21400,0
2015-02-12,18:45:00,64.3,64.38,64.29,64.38,4114,0
2015-02-12,18:50:00,64.42,64.43,64.3,64.33,4100,0
2015-02-12,18:55:00,64.35,64.38,64.35,64.38,1876,0
2015-02-12,19:00:00,64.33,64.37,64.33,64.37,1500,0
2015-02-12,19:05:00,64.34,64.39,64.34,64.38,1730,0
2015-02-12,19:10:00,64.37,64.37,64.22,64.24,6637,0
2015-02-12,19:15:00,64.21,64.21,64.03,64.14,10800,0
2015-02-12,19:20:00,64.19,64.27,64.17,64.17,1641,0
2015-02-12,19:25:00,64.19,64.23,64.14,64.22,2900,0
2015-02-12,19:30:00,64.28,64.35,64.27,64.27,3100,0
2015-02-12,19:35:00,64.29,64.29,64.24,64.24,2900,0
2015-02-12,19:40:00,64.24,64.26,64.15,64.15,4788,0
2015-02-12,19:45:00,64.15,64.19,64.07,64.09,2800,0
2015-02-12,19:50:00,64.06,64.12,63.96,63.96,2700,0
2015-02-12,19:55:00,63.96,64.0,63.96,63.98,2884,0
2015-02-12,20:00:00,64.02,64.05,63.99,63.99,1915,0
2015-02-12,20:05:00,63.98,63.99,63.94,63.94,1900,0
2015-02-12,20:10:00,63.91,63.99,63.91,63.96,2300,0
2015-02-12,20:15:00,64.0,64.01,63.96,64.01,1900,0
2015-02-12,20:20:00,63.97,63.97,63.93,63.93,1000,0
2015-02-12,20:25:00,63.92,63.93,63.91,63.93,1000,0
2015-02-12,20:30:00,63.92,63.97,63.87,63.9,2700,0
2015-02-12,20:35:00,63.86,63.94,63.86,63.94,3585,0
2015-02-12,20:40:00,63.94,63.97,63.94,63.96,2610,0
2015-02-12,20:45:00,63.98,64.03,63.98,64.03,2200,0
2015-02-12,20:50:00,64.06,64.14,64.06,64.14,2216,0
2015-02-12,20:55:00,64.15,64.19,64.13,64.16,2548,0
2015-02-12,21:00:00,64.15,64.2,64.15,64.2,3100,0
2015-02-12,21:05:00,64.18,64.21,64.17,64.18,3100,0
2015-02-12,21:10:00,64.16,64.17,64.09,64.12,1500,0
2015-02-12,21:15:00,64.15,64.15,64.04,64.04,1800,0
2015-02-12,21:20:00,64.04,64.1,64.03,64.03,2205,0
2015-02-12,21:25:00,64.03,64.08,64.02,64.02,4570,0
2015-02-12,21:30:00,64.0,64.03,63.97,63.97,2440,0
2015-02-12,21:35:00,63.97,64.01,63.92,63.93,3900,0
2015-02-12,21:40:00,63.91,64.0,63.9,64.0,7672,0
2015-02-12,21:45:00,64.0,64.17,64.0,64.17,9587,0
2015-02-12,21:50:00,64.1,64.18,64.09,64.18,12800,0
2015-02-12,21:55:00,64.18,64.18,64.13,64.14,8059,0
2015-02-12,22:00:00,64.14,64.14,64.05,64.07,145720,0
2015-02-13,15:35:00,64.11,64.41,64.11,64.41,1279,0
2015-02-13,15:40:00,64.34,64.46,63.89,64.45,4562,0
2015-02-13,15:45:00,64.44,64.44,64.23,64.23,300,0
2015-02-13,15:50:00,64.3,64.43,64.2,64.41,1800,0
2015-02-13,15:55:00,64.21,64.25,64.21,64.24,1600,0
2015-02-13,16:00:00,64.32,64.32,64.31,64.31,700,0
2015-02-13,16:05:00,64.32,64.32,64.17,64.26,900,0
2015-02-13,16:10:00,64.15,64.15,63.97,64.12,2100,0
2015-02-13,16:15:00,64.08,64.14,63.95,64.14,6060,0
2015-02-13,16:20:00,64.18,64.4,64.07,64.4,19328,0
2015-02-13,16:25:00,64.31,64.33,64.27,64.29,700,0
2015-02-13,16:30:00,64.29,64.34,64.29,64.32,1000,0
2015-02-13,16:35:00,64.36,64.36,64.36,64.36,700,0
2015-02-13,16:40:00,64.36,64.36,64.36,64.36,300,0
2015-02-13,16:45:00,64.36,64.46,64.34,64.42,2781,0
2015-02-13,16:50:00,64.5,64.5,64.4,64.47,1100,0
2015-02-13,16:55:00,64.47,64.53,64.44,64.44,1100,0
2015-02-13,17:00:00,64.55,64.55,64.53,64.53,1500,0
2015-02-13,17:05:00,64.57,64.74,64.57,64.63,1612,0
2015-02-13,17:10:00,64.65,64.66,64.59,64.66,1900,0
2015-02-13,17:15:00,64.56,64.6,64.44,64.53,2700,0
2015-02-13,17:20:00,64.57,64.57,64.53,64.53,1194,0
2015-02-13,17:25:00,64.57,64.59,64.53,64.59,800,0
2015-02-13,17:30:00,64.61,64.62,64.5,64.5,1800,0
2015-02-13,17:35:00,64.57,64.57,64.5,64.5,2800,0
2015-02-13,17:40:00,64.46,64.55,64.46,64.55,700,0
2015-02-13,17:45:00,64.5,64.61,64.5,64.61,1600,0
2015-02-13,17:50:00,64.61,64.63,64.61,64.63,700,0
2015-02-13,17:55:00,64.62,64.63,64.54,64.54,1700,0
2015-02-13,18:00:00,64.53,64.58,64.53,64.58,255,0
2015-02-13,18:05:00,64.55,64.59,64.53,64.59,1150,0
2015-02-13,18:10:00,64.62,64.62,64.55,64.62,2300,0
2015-02-13,18:15:00,64.59,64.59,64.49,64.49,1800,0
2015-02-13,18:20:00,64.57,64.66,64.57,64.61,1000,0
2015-02-13,18:25:00,64.6,64.6,64.58,64.58,2200,0
2015-02-13,18:30:00,64.56,64.56,64.47,64.47,800,0
2015-02-13,18:35:00,64.5,64.5,64.48,64.48,500,0
2015-02-13,18:40:00,64.4,64.54,64.4,64.53,2600,0
2015-02-13,18:45:00,64.52,64.53,64.5,64.5,937,0
2015-02-13,18:50:00,64.51,64.51,64.44,64.44,1700,0
2015-02-13,19:05:00,64.51,64.51,64.43,64.46,3074,0
2015-02-13,19:10:00,64.5,64.55,64.45,64.45,2300,0
2015-02-13,19:15:00,64.52,64.56,64.5,64.56,3800,0
2015-02-13,19:20:00,64.54,64.55,64.5,64.54,2000,0
2015-02-13,19:30:00,64.52,64.52,64.46,64.49,1100,0
2015-02-13,19:35:00,64.49,64.49,64.49,64.49,300,0
2015-02-13,19:40:00,64.46,64.46,64.39,64.41,2300,0
2015-02-13,19:45:00,64.36,64.41,64.36,64.41,600,0
2015-02-13,19:50:00,64.44,64.46,64.44,64.45,1200,0
2015-02-13,19:55:00,64.4,64.44,64.4,64.43,900,0
2015-02-13,20:00:00,64.44,64.45,64.42,64.42,1000,0
2015-02-13,20:05:00,64.41,64.43,64.41,64.42,1549,0
2015-02-13,20:10:00,64.4,64.4,64.4,64.4,100,0
2015-02-13,20:15:00,64.44,64.44,64.41,64.41,2500,0
2015-02-13,20:20:00,64.42,64.53,64.42,64.53,1100,0
2015-02-13,20:25:00,64.51,64.51,64.47,64.47,712,0
2015-02-13,20:30:00,64.48,64.55,64.48,64.51,1900,0
2015-02-13,20:35:00,64.48,64.48,64.43,64.43,4265,0
2015-02-13,20:40:00,64.45,64.45,64.32,64.32,400,0
2015-02-13,20:45:00,64.41,64.41,64.36,64.36,900,0
2015-02-13,20:50:00,64.37,64.39,64.33,64.33,700,0
2015-02-13,20:55:00,64.34,64.39,64.34,64.39,3300,0
2015-02-13,21:00:00,64.4,64.42,64.39,64.42,1490,0
2015-02-13,21:05:00,64.44,64.44,64.31,64.34,1400,0
2015-02-13,21:10:00,64.39,64.47,64.39,64.41,2285,0
2015-02-13,21:15:00,64.4,64.43,64.38,64.43,3100,0
2015-02-13,21:20:00,64.51,64.51,64.41,64.41,1600,0
2015-02-13,21:25:00,64.44,64.44,64.41,64.42,3100,0
2015-02-13,21:30:00,64.44,64.44,64.4,64.41,1500,0
2015-02-13,21:35:00,64.42,64.45,64.39,64.39,2400,0
2015-02-13,21:40:00,64.47,64.49,64.43,64.44,2000,0
2015-02-13,21:45:00,64.46,64.49,64.43,64.49,1800,0
2015-02-13,21:50:00,64.5,64.5,64.46,64.47,4800,0
2015-02-13,21:55:00,64.49,64.51,64.47,64.49,6500,0
2015-02-13,22:00:00,64.5,64.56,64.49,64.56,55573,0
2015-02-17,15:35:00,64.83,64.83,64.69,64.76,900,0
2015-02-17,15:40:00,64.42,64.59,64.33,64.38,1600,0
2015-02-17,15:45:00,64.34,64.65,64.19,64.56,2600,0
2015-02-17,15:50:00,64.3,64.51,64.3,64.5,1200,0
2015-02-17,15:55:00,64.26,64.51,64.24,64.51,1265,0
2015-02-17,16:00:00,64.23,64.5,64.23,64.49,1655,0
2015-02-17,16:05:00,64.61,64.65,64.57,64.6,2062,0
2015-02-17,16:10:00,64.6,64.67,64.6,64.66,1700,0
2015-02-17,16:15:00,64.66,64.81,64.62,64.68,3900,0
2015-02-17,16:20:00,64.77,64.84,64.71,64.74,5100,0
2015-02-17,16:25:00,64.78,64.8,64.61,64.75,2100,0
2015-02-17,16:30:00,64.74,64.83,64.72,64.82,3574,0
2015-02-17,16:35:00,64.82,64.84,64.76,64.82,10842,0
2015-02-17,16:40:00,64.76,64.84,64.66,64.8,29529,0
2015-02-17,16:45:00,64.79,65,64.77,64.97,13893,0
2015-02-17,16:50:00,64.83,64.85,64.82,64.85,800,0
2015-02-17,16:55:00,64.85,65,64.85,64.9,11188,0
2015-02-17,17:00:00,64.9,64.93,64.8,64.93,1800,0
2015-02-17,17:05:00,64.87,64.92,64.86,64.92,2100,0
2015-02-17,17:10:00,64.92,65,64.92,64.99,2214,0
2015-02-17,17:15:00,65,65,65,65,600,0
2015-02-17,17:20:00,64.97,65.02,64.87,64.92,8135,0
2015-02-17,17:25:00,64.9,64.99,64.9,64.99,2710,0
2015-02-17,17:30:00,64.98,64.98,64.86,64.86,8063,0
2015-02-17,17:35:00,64.94,64.94,64.73,64.89,5700,0
2015-02-17,17:40:00,64.9,64.9,64.81,64.81,1900,0
2015-02-17,17:45:00,64.81,64.88,64.8,64.88,6400,0
2015-02-17,17:50:00,64.91,64.97,64.87,64.97,9300,0
2015-02-17,17:55:00,64.92,65,64.91,64.98,4700,0
2015-02-17,18:00:00,64.99,65,64.98,65,9322,0
2015-02-17,18:05:00,65.02,65.05,65,65,600,0
2015-02-17,18:10:00,64.97,65.08,64.97,65.07,1200,0
2015-02-17,18:15:00,65,65.1,65,65.1,2912,0
2015-02-17,18:20:00,65.11,65.26,65.1,65.18,2400,0
2015-02-17,18:25:00,65.14,65.17,65.13,65.17,400,0
2015-02-17,18:30:00,65.13,65.31,65.13,65.23,4464,0
2015-02-17,18:35:00,65.22,65.26,65.22,65.26,1140,0
2015-02-17,18:40:00,65.16,65.3,65.16,65.3,4000,0
2015-02-17,18:45:00,65.36,65.37,65.3,65.34,1300,0
2015-02-17,18:50:00,65.3,65.39,65.3,65.36,900,0
2015-02-17,18:55:00,65.35,65.45,65.35,65.45,2206,0
2015-02-17,19:00:00,65.49,65.49,65.42,65.49,2200,0
2015-02-17,19:05:00,65.52,65.52,65.52,65.52,700,0
2015-02-17,19:10:00,65.55,65.56,65.5,65.51,2200,0
2015-02-17,19:15:00,65.51,65.55,65.51,65.52,2100,0
2015-02-17,19:20:00,65.61,65.61,65.54,65.61,2500,0
2015-02-17,19:25:00,65.61,65.69,65.56,65.69,4043,0
2015-02-17,19:30:00,65.64,65.68,65.5,65.5,2900,0
2015-02-17,19:35:00,65.56,65.56,65.4,65.41,3100,0
2015-02-17,19:40:00,65.42,65.43,65.39,65.39,3850,0
2015-02-17,19:45:00,65.39,65.39,65.37,65.37,3568,0
2015-02-17,19:50:00,65.39,65.4,65.36,65.4,5288,0
2015-02-17,19:55:00,65.4,65.41,65.36,65.41,2600,0
2015-02-17,20:00:00,65.41,65.41,65.36,65.41,3900,0
2015-02-17,20:05:00,65.37,65.39,65.35,65.37,3346,0
2015-02-17,20:10:00,65.39,65.44,65.36,65.44,1913,0
2015-02-17,20:15:00,65.42,65.53,65.42,65.52,5400,0
2015-02-17,20:20:00,65.47,65.48,65.24,65.32,3200,0
2015-02-17,20:25:00,65.34,65.34,65.27,65.33,2302,0
2015-02-17,20:30:00,65.38,65.4,65.28,65.29,2000,0
2015-02-17,20:35:00,65.29,65.34,65.23,65.34,5386,0
2015-02-17,20:40:00,65.41,65.46,65.24,65.25,2200,0
2015-02-17,20:45:00,65.31,65.41,65.31,65.41,3100,0
2015-02-17,20:50:00,65.32,65.41,65.3,65.34,2900,0
2015-02-17,20:55:00,65.35,65.42,65.27,65.37,7195,0
2015-02-17,21:00:00,65.31,65.33,65.16,65.16,1500,0
2015-02-17,21:05:00,65.24,65.25,65.15,65.16,2200,0
2015-02-17,21:10:00,65.12,65.23,65.1,65.19,3400,0
2015-02-17,21:15:00,65.17,65.19,65.13,65.13,3659,0
2015-02-17,21:20:00,65.17,65.19,65.16,65.19,400,0
2015-02-17,21:25:00,65.17,65.2,65.15,65.19,5700,0
2015-02-17,21:30:00,65.24,65.24,65.22,65.22,700,0
2015-02-17,21:35:00,65.2,65.29,65.16,65.25,4140,0
2015-02-17,21:40:00,65.21,65.25,65.19,65.25,2390,0
2015-02-17,21:45:00,65.24,65.24,65.19,65.21,2700,0
2015-02-17,21:50:00,65.19,65.21,65.16,65.21,6540,0
2015-02-17,21:55:00,65.22,65.23,65.14,65.18,5356,0
2015-02-17,22:00:00,65.17,65.25,65.17,65.25,52557,0
2015-02-18,15:35:00,64.99,65.43,64.99,65.23,3131,0
2015-02-18,15:40:00,65.15,65.34,65.15,65.31,1500,0
2015-02-18,15:45:00,65.31,65.52,65.27,65.29,2100,0
2015-02-18,15:50:00,65.42,65.46,65.3,65.41,6129,0
2015-02-18,15:55:00,65.35,65.42,65.1,65.25,13307,0
2015-02-18,16:00:00,65.2,65.31,65.09,65.12,5925,0
2015-02-18,16:05:00,65.11,65.37,65.09,65.27,3800,0
2015-02-18,16:10:00,65.27,65.35,65.09,65.24,7435,0
2015-02-18,16:15:00,65.21,65.24,65.16,65.21,5000,0
2015-02-18,16:20:00,65.15,65.34,65.15,65.24,17870,0
2015-02-18,16:25:00,65.26,65.35,65.19,65.23,8712,0
2015-02-18,16:30:00,65.2,65.2,65.13,65.15,2300,0
2015-02-18,16:35:00,65.15,65.28,65.13,65.28,3178,0
2015-02-18,16:40:00,65.28,65.28,65.14,65.14,1600,0
2015-02-18,16:45:00,65.28,65.28,65.19,65.24,900,0
2015-02-18,16:50:00,65.28,65.35,65.26,65.35,2825,0
2015-02-18,16:55:00,65.38,65.4,65.38,65.39,400,0
2015-02-18,17:00:00,65.3,65.37,65.28,65.28,2654,0
2015-02-18,17:05:00,65.32,65.32,65.27,65.32,2100,0
2015-02-18,17:10:00,65.31,65.31,65.24,65.29,3100,0
2015-02-18,17:15:00,65.29,65.31,65.27,65.31,2900,0
2015-02-18,17:20:00,65.3,65.39,65.26,65.35,2500,0
2015-02-18,17:25:00,65.43,65.43,65.4,65.42,3300,0
2015-02-18,17:30:00,65.45,65.47,65.36,65.4,3981,0
2015-02-18,17:35:00,65.38,65.44,65.35,65.37,5900,0
2015-02-18,17:40:00,65.44,65.44,65.36,65.41,8500,0
2015-02-18,17:45:00,65.42,65.43,65.26,65.3,3102,0
2015-02-18,17:50:00,65.33,65.39,65.3,65.31,2900,0
2015-02-18,17:55:00,65.22,65.35,65.22,65.33,1400,0
2015-02-18,18:00:00,65.33,65.34,65.33,65.34,400,0
2015-02-18,18:05:00,65.32,65.38,65.28,65.37,2000,0
2015-02-18,18:10:00,65.28,65.33,65.15,65.15,4300,0
2015-02-18,18:15:00,65.14,65.22,65.09,65.22,2900,0
2015-02-18,18:20:00,65.32,65.32,65.11,65.16,1500,0
2015-02-18,18:25:00,65.12,65.18,65.12,65.18,2469,0
2015-02-18,18:30:00,65.17,65.26,65.16,65.18,2441,0
2015-02-18,18:35:00,65.13,65.22,65.12,65.16,1310,0
2015-02-18,18:40:00,65.19,65.19,65.09,65.1,1400,0
2015-02-18,18:45:00,65.15,65.19,65.14,65.17,2100,0
2015-02-18,18:50:00,65.18,65.25,65.18,65.25,1600,0
2015-02-18,18:55:00,65.25,65.25,65.21,65.21,2448,0
2015-02-18,19:00:00,65.22,65.23,65.2,65.2,3754,0
2015-02-18,19:05:00,65.2,65.23,65.16,65.23,2000,0
2015-02-18,19:10:00,65.22,65.22,65.15,65.19,2530,0
2015-02-18,19:15:00,65.18,65.22,65.18,65.22,1800,0
2015-02-18,19:20:00,65.2,65.24,65.1,65.1,8466,0
2015-02-18,19:25:00,65.18,65.23,65.09,65.1,5100,0
2015-02-18,19:30:00,65.1,65.14,65.07,65.11,2612,0
2015-02-18,19:35:00,65.11,65.15,65.09,65.15,2100,0
2015-02-18,19:40:00,65.13,65.17,65.09,65.17,1300,0
2015-02-18,19:45:00,65.18,65.31,65.18,65.24,5382,0
2015-02-18,19:50:00,65.33,65.33,65.28,65.28,2364,0
2015-02-18,19:55:00,65.28,65.34,65.28,65.34,1805,0
2015-02-18,20:00:00,65.31,65.35,65.28,65.28,1400,0
2015-02-18,20:05:00,65.35,65.46,65.34,65.4,3900,0
2015-02-18,20:10:00,65.43,65.43,65.36,65.36,2300,0
2015-02-18,20:15:00,65.37,65.44,65.35,65.44,3000,0
2015-02-18,20:20:00,65.38,65.48,65.38,65.48,5112,0
2015-02-18,20:25:00,65.48,65.48,65.47,65.48,1500,0
2015-02-18,20:30:00,65.48,65.53,65.45,65.5,11016,0
2015-02-18,20:35:00,65.52,65.57,65.51,65.57,3300,0
2015-02-18,20:40:00,65.56,65.56,65.48,65.48,1210,0
2015-02-18,20:45:00,65.55,65.57,65.47,65.57,4000,0
2015-02-18,20:50:00,65.61,65.61,65.51,65.53,2900,0
2015-02-18,20:55:00,65.51,65.55,65.5,65.54,4740,0
2015-02-18,21:00:00,65.5,65.56,65.5,65.56,4200,0
2015-02-18,21:05:00,65.63,65.63,65.57,65.61,1000,0
2015-02-18,21:10:00,65.57,65.66,65.57,65.64,4588,0
2015-02-18,21:15:00,65.62,65.62,65.58,65.58,1600,0
2015-02-18,21:20:00,65.59,65.65,65.57,65.63,4000,0
2015-02-18,21:25:00,65.62,65.65,65.61,65.62,3600,0
2015-02-18,21:30:00,65.6,65.61,65.55,65.56,5016,0
2015-02-18,21:35:00,65.6,65.6,65.51,65.54,3800,0
2015-02-18,21:40:00,65.56,65.58,65.54,65.56,6100,0
2015-02-18,21:45:00,65.54,65.6,65.52,65.6,5600,0
2015-02-18,21:50:00,65.6,65.69,65.56,65.56,11733,0
2015-02-18,21:55:00,65.59,65.64,65.55,65.6,14117,0
2015-02-18,22:00:00,65.56,65.83,65.54,65.83,488145,0
2015-02-19,15:35:00,65.41,65.41,65.41,65.41,15570,0
2015-02-19,15:40:00,65.42,65.44,65.14,65.24,1300,0
2015-02-19,15:45:00,65.51,65.56,65.51,65.56,500,0
2015-02-19,15:50:00,65.54,65.7,65.47,65.7,1800,0
2015-02-19,15:55:00,65.56,65.56,65.45,65.45,800,0
2015-02-19,16:00:00,65.44,65.54,65.39,65.54,1200,0
2015-02-19,16:05:00,65.54,65.54,65.24,65.24,3648,0
2015-02-19,16:10:00,65.24,65.56,65.23,65.52,1500,0
2015-02-19,16:15:00,65.45,65.58,65.45,65.58,3200,0
2015-02-19,16:20:00,65.57,65.67,65.51,65.67,2141,0
2015-02-19,16:25:00,65.65,65.65,65.54,65.58,900,0
2015-02-19,16:30:00,65.69,65.69,65.55,65.67,700,0
2015-02-19,16:35:00,65.57,65.59,65.52,65.58,1358,0
2015-02-19,16:40:00,65.59,65.66,65.52,65.59,19604,0
2015-02-19,16:45:00,65.58,65.69,65.58,65.67,2460,0
2015-02-19,16:50:00,65.64,65.69,65.64,65.67,2400,0
2015-02-19,16:55:00,65.68,65.71,65.67,65.71,3720,0
2015-02-19,17:00:00,65.69,65.69,65.68,65.69,1500,0
2015-02-19,17:05:00,65.7,65.8,65.68,65.7,4200,0
2015-02-19,17:10:00,65.73,65.75,65.66,65.73,2400,0
2015-02-19,17:15:00,65.75,65.83,65.64,65.79,2729,0
2015-02-19,17:20:00,65.81,65.97,65.81,65.92,6900,0
2015-02-19,17:25:00,65.94,65.99,65.91,65.91,2800,0
2015-02-19,17:30:00,65.92,66.01,65.92,65.98,1700,0
2015-02-19,17:35:00,65.98,66.05,65.92,66.05,2803,0
2015-02-19,17:40:00,66.03,66.16,66.03,66.09,3484,0
2015-02-19,17:45:00,66.1,66.14,66.08,66.12,2300,0
2015-02-19,17:50:00,66.14,66.19,66.13,66.16,4450,0
2015-02-19,17:55:00,66.17,66.17,66.14,66.14,2435,0
2015-02-19,18:00:00,66.02,66.14,66.02,66.1,2828,0
2015-02-19,18:05:00,66.09,66.11,66.04,66.04,2600,0
2015-02-19,18:10:00,66.07,66.14,66.07,66.09,2000,0
2015-02-19,18:15:00,66.13,66.17,66.1,66.15,4288,0
2015-02-19,18:20:00,66.17,66.19,66.09,66.16,2800,0
2015-02-19,18:25:00,66.2,66.27,66.2,66.25,5467,0
2015-02-19,18:30:00,66.23,66.25,66.14,66.19,4200,0
2015-02-19,18:35:00,66.19,66.23,66.06,66.07,5000,0
2015-02-19,18:40:00,66.05,66.07,66,66.07,3100,0
2015-02-19,18:45:00,66.05,66.07,65.99,66.06,2500,0
2015-02-19,18:50:00,66.05,66.05,66,66.05,2800,0
2015-02-19,18:55:00,66.05,66.05,66,66.02,3646,0
2015-02-19,19:00:00,66.03,66.03,65.97,65.99,2389,0
2015-02-19,19:05:00,65.99,66,65.95,65.95,2376,0
2015-02-19,19:10:00,65.93,65.95,65.92,65.95,2057,0
2015-02-19,19:15:00,65.94,65.94,65.94,65.94,409,0
2015-02-19,19:20:00,65.94,65.94,65.9,65.92,3689,0
2015-02-19,19:25:00,65.96,65.98,65.89,65.89,2800,0
2015-02-19,19:30:00,65.91,65.93,65.91,65.92,1000,0
2015-02-19,19:35:00,65.9,65.91,65.83,65.91,2902,0
2015-02-19,19:40:00,65.89,65.89,65.87,65.87,1215,0
2015-02-19,19:45:00,65.86,65.91,65.86,65.86,1100,0
2015-02-19,19:50:00,65.9,65.97,65.9,65.97,3632,0
2015-02-19,19:55:00,65.93,66,65.92,66,3400,0
2015-02-19,20:00:00,66,66,65.98,65.99,2300,0
2015-02-19,20:05:00,65.99,66.04,65.97,66.03,6116,0
2015-02-19,20:10:00,66,66.03,65.92,65.92,3063,0
2015-02-19,20:15:00,65.93,65.97,65.91,65.92,2361,0
2015-02-19,20:20:00,65.92,65.93,65.88,65.88,2100,0
2015-02-19,20:25:00,65.85,65.9,65.85,65.89,2400,0
2015-02-19,20:30:00,65.89,65.92,65.84,65.9,2000,0
2015-02-19,20:35:00,65.88,65.89,65.88,65.89,300,0
2015-02-19,20:40:00,65.87,65.87,65.69,65.7,5480,0
2015-02-19,20:45:00,65.66,65.7,65.66,65.67,1000,0
2015-02-19,20:50:00,65.68,65.7,65.6,65.65,7687,0
2015-02-19,20:55:00,65.66,65.66,65.61,65.61,1212,0
2015-02-19,21:00:00,65.66,65.88,65.66,65.86,2797,0
2015-02-19,21:05:00,65.88,65.93,65.82,65.9,14285,0
2015-02-19,21:10:00,65.86,65.89,65.83,65.86,3614,0
2015-02-19,21:15:00,65.84,65.89,65.84,65.88,1662,0
2015-02-19,21:20:00,65.84,65.88,65.83,65.88,2884,0
2015-02-19,21:25:00,65.88,65.98,65.88,65.91,4903,0
2015-02-19,21:30:00,65.87,65.91,65.81,65.85,3536,0
2015-02-19,21:35:00,65.84,65.85,65.75,65.81,3600,0
2015-02-19,21:40:00,65.8,65.84,65.74,65.82,4100,0
2015-02-19,21:45:00,65.84,65.88,65.78,65.82,4300,0
2015-02-19,21:50:00,65.82,65.82,65.71,65.78,7266,0
2015-02-19,21:55:00,65.79,65.8,65.73,65.8,10889,0
2015-02-19,22:00:00,65.79,65.87,65.77,65.84,64630,0
2015-02-20,15:35:00,65.94,66.05,65.45,65.61,8172,0
2015-02-20,15:40:00,65.61,65.95,65.35,65.38,3732,0
2015-02-20,15:45:00,65.22,65.66,65.22,65.66,3100,0
2015-02-20,15:50:00,65.4,65.66,65.24,65.31,1322,0
2015-02-20,15:55:00,65.39,65.61,65.21,65.61,1800,0
2015-02-20,16:00:00,65.41,65.41,65.15,65.29,2000,0
2015-02-20,16:05:00,65.31,65.33,65.22,65.24,1450,0
2015-02-20,16:10:00,65.27,65.42,65.14,65.31,1850,0
2015-02-20,16:15:00,65.4,65.51,65.33,65.38,1100,0
2015-02-20,16:20:00,65.38,65.42,65.3,65.4,2750,0
2015-02-20,16:25:00,65.38,65.42,65.28,65.39,4586,0
2015-02-20,16:30:00,65.36,65.56,65.34,65.53,2200,0
2015-02-20,16:35:00,65.43,65.52,65.35,65.52,1700,0
2015-02-20,16:40:00,65.52,65.6,65.37,65.55,2904,0
2015-02-20,16:45:00,65.56,65.77,65.53,65.64,4096,0
2015-02-20,16:50:00,65.64,65.96,65.63,65.79,1430,0
2015-02-20,16:55:00,65.68,65.71,65.47,65.7,1445,0
2015-02-20,17:00:00,65.7,65.81,65.7,65.79,2500,0
2015-02-20,17:05:00,65.8,65.88,65.77,65.82,2605,0
2015-02-20,17:10:00,65.83,65.83,65.69,65.77,2400,0
2015-02-20,17:15:00,65.82,65.86,65.63,65.81,1700,0
2015-02-20,17:20:00,65.81,65.81,65.61,65.79,1250,0
2015-02-20,17:25:00,65.79,65.84,65.67,65.84,2600,0
2015-02-20,17:30:00,65.84,65.93,65.84,65.91,1650,0
2015-02-20,17:35:00,65.76,65.92,65.59,65.65,4200,0
2015-02-20,17:40:00,65.66,65.66,65.5,65.54,9431,0
2015-02-20,17:45:00,65.49,65.5,65.25,65.3,11777,0
2015-02-20,17:50:00,65.31,65.33,65.19,65.23,2200,0
2015-02-20,17:55:00,65.27,65.4,65.23,65.38,4500,0
2015-02-20,18:00:00,65.34,65.44,65.33,65.44,2800,0
2015-02-20,18:05:00,65.46,65.58,65.43,65.58,2900,0
2015-02-20,18:10:00,65.52,65.53,65.44,65.44,1200,0
2015-02-20,18:15:00,65.52,65.59,65.43,65.55,6052,0
2015-02-20,18:20:00,65.55,65.59,65.54,65.59,1000,0
2015-02-20,18:25:00,65.55,65.58,65.52,65.52,2100,0
2015-02-20,18:30:00,65.53,65.59,65.53,65.59,700,0
2015-02-20,18:35:00,65.59,65.59,65.53,65.56,2600,0
2015-02-20,18:40:00,65.6,65.72,65.54,65.54,1614,0
2015-02-20,18:45:00,65.56,65.71,65.56,65.62,1000,0
2015-02-20,18:50:00,65.62,65.72,65.62,65.69,1350,0
2015-02-20,18:55:00,65.66,65.69,65.65,65.69,600,0
2015-02-20,19:00:00,65.7,65.82,65.69,65.82,1500,0
2015-02-20,19:05:00,65.73,65.79,65.73,65.79,700,0
2015-02-20,19:10:00,65.77,65.85,65.73,65.77,1500,0
2015-02-20,19:15:00,65.86,65.87,65.76,65.79,1700,0
2015-02-20,19:20:00,65.81,65.85,65.78,65.85,2200,0
2015-02-20,19:25:00,65.88,65.93,65.8,65.84,7000,0
2015-02-20,19:30:00,65.84,65.91,65.8,65.86,3550,0
2015-02-20,19:35:00,65.86,65.86,65.79,65.85,1853,0
2015-02-20,19:40:00,65.81,65.91,65.78,65.86,6885,0
2015-02-20,19:45:00,65.9,65.96,65.83,65.88,3300,0
2015-02-20,19:50:00,65.92,66,65.81,65.92,6944,0
2015-02-20,19:55:00,65.88,65.92,65.82,65.88,2800,0
2015-02-20,20:00:00,65.9,65.97,65.82,65.9,2000,0
2015-02-20,20:05:00,65.9,65.92,65.81,65.89,2200,0
2015-02-20,20:10:00,65.81,65.95,65.81,65.9,1400,0
2015-02-20,20:15:00,65.82,65.96,65.82,65.94,950,0
2015-02-20,20:20:00,65.95,66.08,65.83,66,16083,0
2015-02-20,20:25:00,66.03,66.07,65.93,65.99,3077,0
2015-02-20,20:30:00,66.03,66.03,65.85,65.85,2300,0
2015-02-20,20:35:00,65.93,66.05,65.85,65.88,1700,0
2015-02-20,20:40:00,65.96,66.05,65.85,65.98,3100,0
2015-02-20,20:45:00,65.92,66,65.79,65.9,4949,0
2015-02-20,20:50:00,65.97,66.03,65.84,66.03,8500,0
2015-02-20,20:55:00,65.93,66.03,65.83,65.83,5900,0
2015-02-20,21:00:00,65.88,66,65.82,66,3795,0
2015-02-20,21:05:00,66.02,66.06,65.96,66.01,1100,0
2015-02-20,21:10:00,66.06,66.26,65.99,66.24,2900,0
2015-02-20,21:15:00,66.11,66.17,65.97,65.97,4000,0
2015-02-20,21:20:00,65.95,65.97,65.87,65.95,3600,0
2015-02-20,21:25:00,65.95,66.08,65.9,66,3500,0
2015-02-20,21:30:00,65.92,65.98,65.9,65.98,3400,0
2015-02-20,21:35:00,65.98,66.05,65.9,66.05,4700,0
2015-02-20,21:40:00,65.98,66,65.93,65.93,3200,0
2015-02-20,21:45:00,65.93,66.02,65.93,65.94,3994,0
2015-02-20,21:50:00,65.96,66.17,65.96,66.07,10287,0
2015-02-20,21:55:00,66.04,66.07,66.01,66.01,5540,0
2015-02-20,22:00:00,66.03,66.22,66.03,66.17,115185,0
2015-02-23,15:35:00,65.82,66.31,65.76,65.76,6298,0
2015-02-23,15:40:00,66.11,66.16,65.87,66.09,1200,0
2015-02-23,15:45:00,65.86,65.92,65.74,65.74,1740,0
2015-02-23,15:50:00,65.64,65.76,65.57,65.7,4824,0
2015-02-23,15:55:00,65.69,65.84,65.68,65.84,6700,0
2015-02-23,16:00:00,65.81,66.08,65.76,65.93,6000,0
2015-02-23,16:05:00,65.9,66.04,65.9,66.03,1717,0
2015-02-23,16:10:00,66.02,66.16,66.02,66.06,5043,0
2015-02-23,16:15:00,66.05,66.15,66.05,66.15,2700,0
2015-02-23,16:20:00,66.06,66.12,65.99,66.02,3939,0
2015-02-23,16:25:00,66.03,66.04,65.88,66,2500,0
2015-02-23,16:30:00,66.06,66.18,66.06,66.1,2183,0
2015-02-23,16:35:00,66.17,66.23,66.1,66.22,6300,0
2015-02-23,16:40:00,66.24,66.26,66.16,66.26,800,0
2015-02-23,16:45:00,66.18,66.22,65.98,65.98,5300,0
2015-02-23,16:50:00,66.12,66.14,66.1,66.12,2300,0
2015-02-23,16:55:00,66.11,66.16,66.02,66.16,1200,0
2015-02-23,17:00:00,66.13,66.17,66.1,66.1,1300,0
2015-02-23,17:05:00,66.06,66.12,65.99,65.99,3300,0
2015-02-23,17:10:00,66.06,66.07,65.99,66.05,2300,0
2015-02-23,17:15:00,66,66,65.92,65.93,2600,0
2015-02-23,17:20:00,65.84,65.98,65.84,65.98,1900,0
2015-02-23,17:25:00,65.99,66,65.89,65.89,900,0
2015-02-23,17:30:00,65.97,66,65.91,65.99,900,0
2015-02-23,17:35:00,66,66,65.89,65.98,2000,0
2015-02-23,17:40:00,65.89,66.03,65.89,66.03,1300,0
2015-02-23,17:45:00,66.03,66.04,66.03,66.04,900,0
2015-02-23,17:50:00,66.04,66.14,66.04,66.04,820,0
2015-02-23,17:55:00,66.04,66.04,66.04,66.04,300,0
2015-02-23,18:00:00,66.07,66.07,66.06,66.06,400,0
2015-02-23,18:05:00,66.13,66.13,66.06,66.12,1600,0
2015-02-23,18:10:00,66.14,66.18,66.09,66.13,5068,0
2015-02-23,18:15:00,66.18,66.18,65.97,66.15,4300,0
2015-02-23,18:20:00,66.2,66.2,66.07,66.17,2400,0
2015-02-23,18:25:00,66.16,66.22,66.12,66.15,2984,0
2015-02-23,18:30:00,66.21,66.21,65.94,66.09,900,0
2015-02-23,18:35:00,66.11,66.11,66.11,66.11,700,0
2015-02-23,18:40:00,66.02,66.11,66.02,66.03,1120,0
2015-02-23,18:45:00,66.04,66.04,66.04,66.04,400,0
2015-02-23,18:50:00,65.96,66.02,65.96,66.01,800,0
2015-02-23,18:55:00,66.05,66.1,66.01,66.07,2000,0
2015-02-23,19:00:00,66.01,66.13,66.01,66.13,2500,0
2015-02-23,19:05:00,66.13,66.18,66.13,66.18,1200,0
2015-02-23,19:10:00,66.2,66.24,66.11,66.17,5400,0
2015-02-23,19:15:00,66.16,66.25,66.11,66.23,7135,0
2015-02-23,19:20:00,66.23,66.4,66.23,66.37,8959,0
2015-02-23,19:25:00,66.38,66.38,66.38,66.38,200,0
2015-02-23,19:30:00,66.36,66.36,66.36,66.36,100,0
2015-02-23,19:35:00,66.3,66.3,66.15,66.15,2800,0
2015-02-23,19:40:00,66.17,66.17,66.14,66.14,500,0
2015-02-23,19:45:00,66.25,66.25,66.25,66.25,400,0
2015-02-23,19:50:00,66.21,66.21,66.17,66.17,500,0
2015-02-23,19:55:00,65.99,66,65.99,66,400,0
2015-02-23,20:00:00,66.06,66.07,65.98,66.07,1184,0
2015-02-23,20:05:00,66.03,66.03,66.03,66.03,600,0
2015-02-23,20:15:00,66.04,66.06,65.99,66.06,1200,0
2015-02-23,20:20:00,66.08,66.14,66,66.14,1500,0
2015-02-23,20:25:00,66.14,66.16,66.08,66.08,1000,0
2015-02-23,20:30:00,66.14,66.14,66.05,66.06,1100,0
2015-02-23,20:35:00,66.05,66.12,66.05,66.12,300,0
2015-02-23,20:40:00,66.08,66.08,66.06,66.07,400,0
2015-02-23,20:45:00,66.07,66.07,65.96,66.06,900,0
2015-02-23,20:50:00,66.06,66.09,66.04,66.04,1789,0
2015-02-23,20:55:00,66.11,66.11,66.07,66.11,1200,0
2015-02-23,21:00:00,66.06,66.15,66.06,66.15,900,0
2015-02-23,21:05:00,66.16,66.16,66.13,66.13,1706,0
2015-02-23,21:10:00,66.15,66.15,66.06,66.06,2400,0
2015-02-23,21:15:00,66.1,66.18,66.08,66.11,2011,0
2015-02-23,21:20:00,66.18,66.18,66.15,66.18,600,0
2015-02-23,21:25:00,66.15,66.16,66.1,66.16,1500,0
2015-02-23,21:30:00,66.15,66.18,66.15,66.15,3848,0
2015-02-23,21:35:00,66.15,66.19,66.15,66.19,2300,0
2015-02-23,21:40:00,66.16,66.2,66.13,66.2,2245,0
2015-02-23,21:45:00,66.2,66.27,66.16,66.27,5188,0
2015-02-23,21:50:00,66.26,66.26,66.19,66.24,3700,0
2015-02-23,21:55:00,66.17,66.21,66.13,66.19,5100,0
2015-02-23,22:00:00,66.2,66.27,66.19,66.27,68657,0
